time,torque (Nm),T_shoulder,T_upper_arm,T_forearm,T_wrist_1,T_wrist_2,T_wrist_3
0.0102,0.02834884652008096,-42.64354722418214,-16.408342991928098,-0.43680679894078467,-0.21358618876536317,0.7419259055494355
0.0202,-0.07282064991949388,-52.31546222482719,-20.189366635132828,-0.11743848448285266,-0.14916449755172856,0.274551912436745
0.0301,-0.05124334230445404,-55.28978691476619,-21.30070394172457,-0.2630963135989819,-0.1272569219591242,0.16533466651307105
0.04,-0.003026234159393848,-56.57950685536791,-21.811247589215174,-0.3308202636488642,-0.10940886586894649,0.10961234216587279
0.05,0.053894703665128496,-55.69122161123222,-21.56194360457454,-0.18044231735640004,-0.09369740406596083,0.07677930981137271
0.0602,0.10378088161934951,-53.31756452757151,-20.773231033779133,-0.027710226250539538,-0.08288711374441249,0.055866526343739675
0.07,0.1472751930958598,-49.95989404367796,-19.618262491013052,0.0612422056048727,-0.076729892047811,0.041653338350657876
0.0803,0.18356153451884838,-45.800239588413426,-18.163622560707505,0.1004387126772377,-0.07603553322775536,0.03219333450351902
0.0902,0.20557669154970748,-41.35481217664195,-16.57231671095051,0.10374796756224636,-0.0820778123656618,0.02616596887158873
0.1004,0.21876155743692238,-36.71168339177942,-14.897164229052219,0.09983033648101425,-0.09514201610233153,0.02233680655706416
0.1108,0.2207030473844367,-32.463426783995104,-13.33696947382585,0.09844256999569923,-0.11441809304942563,0.020153876169687335
0.1203,0.2117855518035585,-29.070819219492023,-12.06250601639239,0.1004760570761214,-0.1384559998103585,0.019280260701535656
0.1301,0.1956237741774972,-26.590190229935896,-11.105790844839072,0.10224549055336651,-0.16616162131050416,0.019465010983077402
0.1402,0.17426459532004956,-25.15114822682563,-10.5222766316477,0.10201690294543653,-0.19572549258537553,0.02075434483816685
0.1502,0.15009599118374173,-24.721552975803032,-10.314530395509216,0.10030235486999906,-0.22582929640469418,0.023284402350099764
0.1603,0.1261596355344441,-25.244851654440836,-10.470230939275481,0.09768942062359787,-0.25448351989413664,0.02732186369733669
0.1702,0.1035591523060021,-26.571065094998612,-10.937223635646125,0.09457479777783062,-0.2814679275538343,0.033136350770931244
0.1802,0.0850481064235249,-28.496379930843315,-11.64393708252337,0.09127411658989582,-0.30485090466874,0.04097020257780748
0.1901,0.07130225659473188,-30.910180475680907,-12.547334687273974,0.08810667862488564,-0.3251982187403155,0.05116452871509536
0.2005,0.06325491283219131,-33.44248622498495,-13.501056767454823,0.08469725242749293,-0.34067204499389936,0.06357261167318051
0.2103,0.0606466760533273,-35.96362823231557,-14.454982254774823,0.08117128625218029,-0.35201661105815507,0.07827815770395175
0.22,0.06295854067694706,-38.309932894172405,-15.345423380501462,0.07730080744370049,-0.3595273256610798,0.0951462346891675
0.2323,0.0698582584717542,-40.55421116984641,-16.19980176343685,0.07322286350079077,-0.36384464190386767,0.1144703916121863
0.2402,0.08030861329036632,-42.26397249857305,-16.85402682243145,0.07167258667705578,-0.36513179485146807,0.1349158414658489
0.2503,0.09302796175505201,-43.23728971957189,-17.234378133581966,0.06724486104127525,-0.3642430458048298,0.1555841439325345
0.2602,0.10646996738055026,-43.58935325902383,-17.385950734325586,0.06239522015233323,-0.3618211122140407,0.17609476653954892
0.2702,0.11998794524462175,-43.38247658339195,-17.33369082846401,0.057673880869759664,-0.3582646273988601,0.1959694240762948
0.2804,0.13200641052592021,-42.66487128770753,-17.094412409948564,0.053597226674221954,-0.3542705008188922,0.21462733202029827
0.2902,0.14178208177751905,-41.53890882224774,-16.70463923041752,0.048578393649232776,-0.35018702035792604,0.231861728759702
0.3233,0.14949386008016763,-40.00563333322299,-16.164840166855416,0.043582445007896764,-0.3459363108508122,0.24689231065427042
0.3289,0.15549937958808124,-38.02283093486941,-15.460523163905519,0.039196513310176595,-0.34125954277280934,0.25860116075812734
0.3344,0.15950228439354008,-35.589326229199756,-14.591391781437034,0.03575041188426997,-0.33615320812801386,0.2659732881151635
0.3437,0.15924869988260504,-32.92704871638198,-13.634766118504661,0.03491724502472837,-0.33129423899882937,0.2694906199039716
0.3515,0.15313973790565893,-30.430570671597597,-12.72889033381765,0.030219746722399687,-0.32742026127090007,0.2720930681609367
0.3595,0.14148122685964704,-28.250598364505468,-11.92942589776077,0.023507707647506093,-0.32468427742216877,0.2751468166740877
0.365,0.1236934768500495,-26.75961199103071,-11.369456891674188,0.012141744736094973,-0.32321174179177126,0.2829017333981685
0.3711,0.102434766656337,-26.257918200570785,-11.16046948541884,-0.0043140345813634795,-0.3226581078324622,0.3001035052859625
0.3811,0.08180355593118283,-26.855502410184577,-11.35260294063295,-0.025934508782526233,-0.32131470110887195,0.3304990143073616
0.3903,0.05937512089739383,-28.173509643850046,-11.80764627912066,-0.05273025654381147,-0.32042041736609495,0.3721602378373824
0.4002,0.03722317957713783,-30.013842803739394,-12.45661683374116,-0.08349187150250925,-0.3194729444338451,0.42446716459017575
0.4102,0.01597773730818086,-32.12041515331183,-13.203363459383935,-0.11810956749896873,-0.3180781889158202,0.4853721236346371
0.4201,-0.004572612964970579,-34.36138564658225,-13.998282954985031,-0.15667758129027742,-0.3162454087977755,0.5538396203496642
0.4302,-0.023630261131428965,-36.508705913227324,-14.757989762131334,-0.19755195970014494,-0.313686869559509,0.6267289195759682
0.4402,-0.04187236952658835,-38.53173041507171,-15.470255144413251,-0.24013841626982124,-0.31029804350646817,0.703386700430133
0.4502,-0.05904956133225703,-40.277868673596636,-16.080205412257286,-0.28373173217063075,-0.3058061435816155,0.7808233197574759
0.4602,-0.0747186156174433,-41.573931777827234,-16.52660101117383,-0.32535180334427194,-0.2998384563175902,0.854749099862721
0.4702,-0.08875625792634234,-42.352089429429114,-16.789535666954524,-0.36470617475908096,-0.2919266982243558,0.9224780379272379
0.4802,-0.10236498032557839,-42.648390920694276,-16.880874944344338,-0.40198435192564164,-0.28168205254251166,0.9830324385678887
0.4903,-0.11565492370248931,-42.461060682691986,-16.80105109811446,-0.43412865985693605,-0.2689636915871736,1.0344300391009624
0.5002,-0.128938002893777,-41.849064684905464,-16.571701836367076,-0.4633081948188478,-0.2537207707735085,1.076490263004484
0.5102,-0.14292537935105853,-40.8918898978406,-16.220583415719315,-0.48854305486855854,-0.23593010031324457,1.1094098950213693
0.5204,-0.15807548580578468,-39.693843007679966,-15.782976875636438,-0.5118627452992364,-0.21584732647037885,1.1346673134723781
0.5302,-0.17478112165451964,-38.38439256008838,-15.304639741390973,-0.5333118061204263,-0.19396854179733936,1.1547553269644735
0.5402,-0.19222638522218483,-37.14675906249556,-14.850440113959117,-0.5544614237956975,-0.17099303375574681,1.1746039101455106
0.5498,-0.21142684485573304,-36.00254736835031,-14.426071995556748,-0.5783069993710348,-0.14727263892356657,1.1952639506291558
0.5603,-0.23345703056664702,-34.967000772038844,-14.036900278705678,-0.6044264950532825,-0.12288576478082902,1.2173777314005867
0.57,-0.25762084666230356,-34.225686947968086,-13.749666663330446,-0.6349334871122538,-0.09913510816009641,1.2478464109391287
0.5802,-0.2841119302790964,-33.763126232640985,-13.559793015839245,-0.6706204360804886,-0.07604805106768531,1.287424583852205
0.5902,-0.3133984698908654,-33.593655193108006,-13.472568094707615,-0.7122479496134102,-0.054087566216190375,1.3379229317986954
0.6003,-0.34571444599294177,-33.70714561208404,-13.484786984563076,-0.760472740473559,-0.03339434465001645,1.4003560251112965
0.6102,-0.38086095082167315,-34.086993854299855,-13.59157389732928,-0.8148216463306222,-0.014148629715802663,1.4754298315204275
0.6207,-0.4190109632595729,-34.70351214059454,-13.781618974414856,-0.8767193126696138,0.0035389559647978075,1.5632965655072115
0.6304,-0.4598591502677285,-35.498984227884435,-14.037049183731815,-0.9444709869425787,0.019804679118482937,1.6626382863232498
0.6402,-0.5006225948801835,-36.36330328935441,-14.316668148727214,-1.0131302193527767,0.034911675410004506,1.7688932094964804
0.6502,-0.5416265930911477,-37.2092638459407,-14.591685467744222,-1.0811539442896012,0.04977367927744858,1.8782750544337277
0.6602,-0.5809699748575017,-37.95373356094623,-14.82975152468148,-1.1526712119650617,0.06501616852444592,1.9872866735214982
0.6702,-0.6216364324314942,-38.63746351151873,-15.043975330588674,-1.2259251029581795,0.08123014312089527,2.096951031866353
0.6802,-0.6615270821569839,-39.1574503621328,-15.20325439635935,-1.2939690839277298,0.0988871157024791,2.2011016876380096
0.6902,-0.7009803047045724,-39.492607145270235,-15.29629731526102,-1.3597942189713024,0.11850964717111889,2.298010031888458
0.7008,-0.7382469907157867,-39.62126668056534,-15.314421711093972,-1.421162349127811,0.14015786069694958,2.38525099738436
0.7106,-0.7759464499062825,-39.58150281902277,-15.27076291608071,-1.4760360767145686,0.16450339053175078,2.463127328341066
0.72,-0.8129653380686834,-39.40348100281465,-15.178164161191258,-1.5302323779425593,0.190693667495899,2.5337012107670356
0.7302,-0.8511897134592135,-39.105104687906135,-15.041242348003157,-1.5820407037295952,0.21918018078697443,2.5966553188233483
0.7402,-0.8901722861903909,-38.730412596755166,-14.876439127545057,-1.63149420853921,0.24918383287878232,2.6541357268859453
0.7504,-0.930202290107786,-38.32344695448417,-14.699493056248947,-1.679518220066556,0.28024029162337705,2.708584982940928
0.7608,-0.9723402888309054,-37.90437391412667,-14.516768227755279,-1.7275120580407552,0.3122355675336985,2.7611676442237463
0.7715,-1.0184427097103468,-37.46895190522646,-14.325273678755105,-1.7770359834391027,0.3454522043156185,2.811463640906999
0.7802,-1.0673421293511471,-37.08189086824687,-14.150876541361184,-1.8268796861069752,0.37851583092177066,2.8639709252657486
0.7902,-1.1165244943970634,-36.82744055956175,-14.024755354084393,-1.8795424804397385,0.409907649261843,2.925816085166408
0.8007,-1.169563529262013,-36.6628240800318,-13.928472624220145,-1.9367837942122081,0.44091015480926377,2.9941696578536723
0.8103,-1.2226940759605527,-36.637323403970626,-13.883595290695851,-1.9965278356494913,0.46996369816142636,3.0735885017105145
0.8203,-1.2783063791558358,-36.723868996457156,-13.877669038901203,-2.060312767365244,0.49790504932537694,3.1625092726409023
0.8309,-1.3350840024811255,-36.913130356267345,-13.908681551569124,-2.1272503104331495,0.5244792675746437,3.2609158433697725
0.8402,-1.3926782905408845,-37.18174260014998,-13.968068387659162,-2.1964388487722246,0.5498349260649587,3.3672943336534917
0.8501,-1.4514211729330384,-37.505387317602086,-14.04670940970944,-2.2669205833401973,0.5743478750531379,3.4797491563203087
0.8605,-1.514116453486108,-37.887384852523645,-14.14406547206889,-2.3407452986930934,0.5985736635388568,3.5988256177859856
0.8702,-1.5765193461035958,-38.270735270392485,-14.242325908365713,-2.4141670040886654,0.6221673290534424,3.7198246063576783
0.8802,-1.6401418731910071,-38.64054356627604,-14.334662163890206,-2.4870490934050897,0.6456737989188657,3.8410317831715655
0.8968,-1.706114041261625,-38.9922549602423,-14.417928945006985,-2.5621381731500197,0.6695521080865223,3.962329847794821
0.905,-1.7754592821955866,-39.3234409197277,-14.491992798788324,-2.6359524424085574,0.6942840292383377,4.0823135109017725
0.9102,-1.8440563708498894,-39.576117703496685,-14.537189521291118,-2.7068775947812833,0.7193815556605268,4.195861093076366
0.9199,-1.9062898609465395,-39.6984915535198,-14.539541430329876,-2.7660938147430407,0.7457878916267386,4.296015024828462
0.9303,-1.9692108000719901,-39.74770018489661,-14.513779315309254,-2.8241887636615077,0.7747786029896124,4.388636637253373
0.9403,-2.0298348298080113,-39.72129638621439,-14.461977571731495,-2.8761361447811433,0.8047880286069473,4.4724681959823736
0.9502,-2.089168579639178,-39.64099085743061,-14.391143509256537,-2.923743961283887,0.8361194751863206,4.549311688335875
0.9598,-2.1490312866267876,-39.51827339524651,-14.3039214329358,-2.9689484341923205,0.868904487108261,4.620055274743961
0.9701,-2.2105598395033494,-39.35751703835147,-14.201005133381525,-3.0123395159978594,0.9034599973321669,4.684664909899636
0.9802,-2.271836699516186,-39.20062586447298,-14.099719758905195,-3.054092627439868,0.9376625805362098,4.748168818763283
0.9899,-2.3352885207287812,-39.04245817910845,-13.99609588565633,-3.095646746541229,0.9727094061673425,4.809518992112299
1.0,-2.398426211951986,-38.926820079034016,-13.908791415179651,-3.1365511680677223,1.006335008647432,4.874269553173576
1.0102,-2.4649628003339554,-38.84612124534892,-13.830432307659168,-3.1798870933524173,1.041484096717026,4.9413394637250105
1.021,-2.504221178094088,-38.76855698220288,-13.796699840418944,-3.198985224243655,1.0399593492511805,5.008816247628116
1.0302,-2.5419396785497455,-38.73927311393998,-13.783026894756093,-3.2165866833336443,1.0344895618281473,5.080595536487552
1.0402,-2.576998017123398,-38.775971385236204,-13.794984932417389,-3.2329660078776152,1.027432385984044,5.159220419982368
1.05,-2.6120446743010755,-38.85886067856717,-13.823481740739336,-3.2499857931656795,1.0186429353872315,5.242374031716568
1.0602,-2.646254524836915,-38.980194356355454,-13.866157815411666,-3.266847707151938,1.0085501837301294,5.329360520736906
1.0702,-2.68039872448679,-39.13386086064843,-13.92021707553285,-3.2840037071032846,0.9969774113562142,5.419518524343279
1.0802,-2.7129014078777387,-39.29812697889762,-13.978601353394447,-3.2994376305298534,0.9849059754795801,5.510050812602262
1.0901,-2.7443980112353032,-39.46667126099358,-14.03863958626367,-3.313756231098802,0.9722583513122203,5.600232790882369
1.1001,-2.774660238783146,-39.6266826803992,-14.09573849037215,-3.326296622629229,0.9593972674943005,5.68826408275778
1.1102,-2.8036822607680962,-39.7693209110231,-14.146726311979393,-3.3368069764132535,0.9465245431140819,5.772881476660279
1.1202,-2.8315049131473833,-39.88744678611006,-14.18884440851877,-3.3451264474420617,0.933846846389585,5.852996395433378
1.1302,-2.858079162057429,-39.97560113902823,-14.22020887071178,-3.351060782870128,0.921518246135502,5.927741260604221
1.1402,-2.8839945200514454,-40.034577327331476,-14.240675025001224,-3.3550907385580135,0.909315888875109,5.997067099865975
1.1502,-2.9081978840312517,-40.057768964437436,-14.248652988972484,-3.3562112479537403,0.8980423185104689,6.059986868325292
1.161,-2.931625302879681,-40.05097839200693,-14.245637702480726,-3.355473392647741,0.8871141591814062,6.117221724081593
1.1756,-2.954692660844581,-40.01608902700282,-14.232018784772372,-3.35337303216832,0.8763496747399726,6.169034969710043
1.1859,-2.977970882357144,-39.954679148144834,-14.207808977649618,-3.3501910640472916,0.8653954175849892,6.215400444729833
1.2001,-3.0011544893502746,-39.87186342774907,-14.175168391036097,-3.345527647963557,0.854516330545394,6.256906328464935
1.21,-3.0247785211891016,-39.77110160284679,-14.135097247691302,-3.3406182145860326,0.8435453990734869,6.294525494431091
1.2144,-3.0487057249391616,-39.65910152777,-14.090535285182792,-3.3350699204786585,0.8325938255724568,6.328966071615702
1.2202,-3.070152589569183,-39.56968787539336,-14.055911881627,-3.3281572791465113,0.822790062217523,6.365617700839594
1.2302,-3.088904814294409,-39.515470750135385,-14.036429267913734,-3.320688762369082,0.8137678117883258,6.406759348923195
1.2402,-3.1057556611818704,-39.49096697858112,-14.029196984396773,-3.3131012370003763,0.8048785005687717,6.451675146893521
1.2501,-3.1212301175228085,-39.49482549876588,-14.033212877177556,-3.3056511892827594,0.7958583190085369,6.50027752169519
1.2606,-3.1359227489749157,-39.52441333241588,-14.046801755090435,-3.2988268796402718,0.7862457877041065,6.5522779768723165
1.2702,-3.150011273156397,-39.57748420625168,-14.068939092748078,-3.2921131096627434,0.7763797946842503,6.607259087901575
1.2802,-3.1635893388091136,-39.64641779071676,-14.096740418603442,-3.2852953325021756,0.7664490848783183,6.664158384073173
1.2945,-3.1769917263494776,-39.72967034121643,-14.128648239486667,-3.278492102111316,0.7557586268910805,6.7223080376473545
1.3056,-3.190409469027374,-39.82252373359383,-14.161911227986398,-3.271663040684664,0.7443263333254251,6.7806943602542304
1.3148,-3.205245649971915,-39.9263451647051,-14.198125054358123,-3.2668262272155593,0.7321353078840884,6.841482918956999
1.3206,-3.2209444713724804,-40.02285321039653,-14.230454440576473,-3.26184284932539,0.7198345353228159,6.900481201656266
1.3302,-3.236462912075778,-40.089660668222464,-14.252154870112134,-3.2550386277811683,0.7086632350898343,6.953963444589678
1.3403,-3.2523465173044093,-40.13610617561757,-14.266285454788019,-3.247538323579895,0.6977398998102853,7.003664174130289
1.3502,-3.2684942280437568,-40.1608781118052,-14.272431273554773,-3.2392989926165177,0.6872194426437632,7.049405682724382
1.3602,-3.2846681196564393,-40.16439188677635,-14.27085585144416,-3.230105480188402,0.677211316353139,7.091080685033074
1.3703,-3.3009018127747622,-40.149904850626825,-14.262656348107917,-3.220178317383798,0.6676175031219858,7.129258523210917
1.3805,-3.3171125793457312,-40.12085620974475,-14.24900228496438,-3.209621589267557,0.6583593392417271,7.164474828949741
1.3902999999999999,-3.3332522855428683,-40.08084729450629,-14.231042128332993,-3.1985625440434777,0.649332032162909,7.197278615067134
1.4003,-3.34917970549359,-40.036237473420556,-14.211361027464568,-3.1871677761503427,0.6406924670137393,7.228962629183257
1.4102000000000001,-3.3648930392070375,-39.98968399137345,-14.19074671102252,-3.175533813474714,0.6321548039443021,7.259907350630666
1.4203000000000001,-3.380527103232145,-39.945075258420275,-14.170408525110222,-3.163866508706888,0.6236756381944994,7.290834924029922
1.4304999999999999,-3.3964396596966706,-39.90231631024113,-14.149825575184392,-3.1524531689113635,0.6148594127811657,7.321725149432071
1.4401,-3.411815936590665,-39.87097688102162,-14.133367085461142,-3.1409215186460466,0.6063141348851513,7.354351565361226
1.4501,-3.4264495167157203,-39.85333421290824,-14.122142152408998,-3.1292231160664734,0.5979736940131897,7.389219020505716
1.46,-3.441358037917263,-39.84484257773853,-14.113123319113194,-3.117988757316942,0.5890245171068891,7.425430198915833
1.4703,-3.4560663326915924,-39.84905128591017,-14.108382883176422,-3.10690407402088,0.5800035428946329,7.4638820563013635
1.4802,-3.470244356393728,-39.865122942496946,-14.108161032203965,-3.0955920167938276,0.5711729149587343,7.504430923450716
1.4908000000000001,-3.484053075800796,-39.89049684689674,-14.111356803465572,-3.084036535040992,0.562333605078039,7.546587755658337
1.5002,-3.497828098395937,-39.92379109399309,-14.117139638486172,-3.0725439655409925,0.5533117253411186,7.590336707061367
1.5102,-3.5114307357914916,-39.96108847161123,-14.124396675270305,-3.060719754502723,0.5443381272411374,7.634906663756909
1.5202,-3.5249151966105408,-39.99901187869469,-14.132030896307635,-3.048448121982112,0.5355152973410968,7.679761475347863
1.5302,-3.5384917266832114,-40.03568447821525,-14.139115070200589,-3.0357992219734333,0.5267283677032966,7.72455412241742
1.5403,-3.5523359161402697,-40.0708683017138,-14.144810053103956,-3.0229328373005275,0.5176395935711335,7.7690180481593165
1.5518,-3.566882499589167,-40.10279335084209,-14.148375197619133,-3.0100382492161435,0.5082889875900642,7.813044557103826
1.5606,-3.581748098156141,-40.12813904257077,-14.148959772889562,-2.9966497920808113,0.49900567300929666,7.855830200829931
1.5702,-3.596937522778193,-40.14575371001101,-14.146861732406538,-2.98286135183021,0.4901087547405405,7.8977539545791995
1.5823,-3.6128789624107718,-40.156872797003224,-14.141471798977491,-2.968990220430795,0.4809175202186218,7.938671432003964
